400,-0.02579939693745359
401,-0.029486467419089335
402,-0.032745127705183896
403,-0.03541034316057767
404,-0.037272106947524586
405,-0.038063068078768025
406,-0.03747317655748461
407,-0.035380630200521956
408,-0.0320650958317763
409,-0.02811820752891192
410,-0.024320615476358998
411,-0.021233628225396983
412,-0.019008674942169845
413,-0.017423995724750285
414,-0.01608619567867564
415,-0.014764945328617829
416,-0.013508701855016958
417,-0.012514221514739243
418,-0.011911287422825545
419,-0.01161835215526974
420,-0.011457251017490955
421,-0.011262265848103303
422,-0.011022829871611517
423,-0.010750423117976249
424,-0.01037945102008564
425,-0.009797105434990128
426,-0.00894542774476037
427,-0.007907796369303388
428,-0.006821734061445817
429,-0.005819151896582331
430,-0.00495515662122703
431,-0.0042175890567041074
432,-0.003592776025620914
433,-0.003092985839943996
434,-0.002711050928860037
435,-0.0023657270764928517
436,-0.001952072613816802
437,-0.0013649393952277489
438,-0.0005857992056204075
439,0.00036819980282942755
440,0.0013598577796030131
441,0.002192451819959196
442,0.002658402163309481
443,0.002669970926633236
444,0.002321858554127587
445,0.0019039971855617788
446,0.0016578294834573848
447,0.001717922429639973
448,0.002025891634611199
449,0.002507435899440358
450,0.003080450603225149
451,0.003688206061703503
452,0.0042583944758392
453,0.0046500457385648675
454,0.004720960463984847
455,0.004440895602955908
456,0.0039339010109020744
457,0.003436541987370867
458,0.003153494870342999
459,0.0031540598525544583
460,0.003326403452687754
461,0.003462006553953789
462,0.0034460048071304206
463,0.0032946446437959187
464,0.003182819831529682
465,0.0032907930030787735
466,0.003665487249589594
467,0.004169009125308376
468,0.004625810140611475
469,0.004931717936259794
470,0.005143755294976793
471,0.0053064396702309224
472,0.005432226775545446
473,0.00544972201689653
474,0.005332501991398231
475,0.005146129910630459
476,0.004999754585024774
477,0.004941785737902604
478,0.004870169593875651
479,0.0046479297226825755
480,0.004295246726742863
481,0.003951260936997714
482,0.0037743347707362984
483,0.0037641709952256353
484,0.0037378921939517085
485,0.003513574397964625
486,0.003068043117696928
487,0.0025559934413852403
488,0.0021343522195089726
489,0.0018787694677699918
490,0.0017015755693420287
491,0.001463432933217379
492,0.0010704987051741721
493,0.0005248653614452481
494,-0.00015507413372051193
495,-0.0009246057135154917
496,-0.0017005521252793088
497,-0.0024127122611401486
498,-0.002987436289828227
499,-0.0033576134048662887
500,-0.0035341322474864434
501,-0.0035520395431249963
502,-0.00348897785769009
503,-0.0034958433609506567
504,-0.0037558869123762717
505,-0.004384485415617867
506,-0.005368741895116269
507,-0.006523189797599804
508,-0.007621329685318257
509,-0.008487246325250553
510,-0.009097763872939146
511,-0.009574926226849967
512,-0.01005936885558767
513,-0.010604914691947909
514,-0.01118642170061035
515,-0.011725631858743868
516,-0.012169049078537997
517,-0.0125457875866537
518,-0.012927122506848132
519,-0.013396737274192438
520,-0.013955763993198311
521,-0.0145744559165496
522,-0.01518170668281471
523,-0.01573423832750176
524,-0.016212837097488775
525,-0.016630685860968608
526,-0.016962105996389587
527,-0.017201456790264413
528,-0.01734971949852282
529,-0.017467500085399212
530,-0.01765868550937988
531,-0.01798751691006706
532,-0.01845275343901065
533,-0.018931544475846773
534,-0.019306755760468364
535,-0.019431235043732786
536,-0.01925136831406271
537,-0.018779004549540512
538,-0.018132057564004267
539,-0.017477519968353894
540,-0.016930905868194013
541,-0.016466084306071105
542,-0.015964786217648075
543,-0.015279076420081306
544,-0.014422576012237287
545,-0.013478997276251459
546,-0.012568773795821664
547,-0.011665105117171892
548,-0.01070110755654119
549,-0.009604435941801492
550,-0.008427168856930178
551,-0.007278897937875839
552,-0.006308881135817401
553,-0.005589347024489211
554,-0.005108817673957544
555,-0.0048164310896000595
556,-0.004597570277950491
557,-0.004356709750492738
558,-0.0040510752673798
559,-0.0037126734442625153
560,-0.003408285260501076
561,-0.003157708100124279
562,-0.0029115530719001637
563,-0.0026140766299119766
564,-0.0022837382638531967
565,-0.0019761466478152023
566,-0.001737487739495558
567,-0.0015584814035061179
568,-0.0013911995555991874
569,-0.0012434095435936987
570,-0.001150348656775324
571,-0.0011705059869538958
572,-0.00123913729403613
573,-0.0012113254174849208
574,-0.0009488909200496831
575,-0.0004070035804486505
576,0.0002506785180261817
577,0.0008086844403347726
578,0.0010562941125915604
579,0.0009822787482459683
580,0.0007122409746064262
581,0.0004941712678798726
582,0.00048503306120473155
583,0.0006658015571194831
584,0.0009066940014240688
585,0.001038254332566324
586,0.0010477260524337506
587,0.0010364813345506985
588,0.0011560788391142829
589,0.001408693050828136
590,0.001681118265573156
591,0.0018368507698299785
592,0.0018279088587477288
593,0.0017312106942296568
594,0.0016733908366470818
595,0.001698080071776964
596,0.0017673476944547462
597,0.0018433858215678445
598,0.001891532227177195
599,0.0018939293687550984
600,0.0018576387140799566
601,0.0017967071828026704
602,0.0017433130664099572
603,0.0017800850436138216
604,0.0019456958425094761
605,0.0022512099461858837
606,0.00261801975920517
607,0.002981879261493292
608,0.003208442053634797
609,0.0032476559912631986
610,0.0030690438278723198
611,0.0027425706949076867
612,0.0024285639950885063
613,0.0022579924014641817
614,0.0022634584788656653
615,0.0023788059376492754
616,0.0024431479837585535
617,0.0023579390564727465
618,0.0020622751256463845
619,0.0016045590277515842
620,0.0011044223920362306
621,0.0007120709922542323
622,0.0005895047486117466
623,0.0008291237837664278
624,0.001396468602427925
625,0.002094266216724261
626,0.0026223761509495125
627,0.0027539216964783675
628,0.0024491889665396727
629,0.0019165851312119564
630,0.0014994306643684174
631,0.0013940576801607651
632,0.0015635722886317982
633,0.0017684803375003222
634,0.0018017065451441105
635,0.0016172545436304864
636,0.0012585012079305846
637,0.0007568868998759637
638,6.370571694369609e-05
639,-0.0007844603323680088
640,-0.001670778792047134
641,-0.0024129628479202525
642,-0.002884997781916865
643,-0.0030335045453546705
644,-0.002898331753266037
645,-0.0025247415898835834
646,-0.0020207236933481587
647,-0.0015544875266426672
648,-0.0012255880142726383
649,-0.0010539211032659646
650,-0.0009406397725209015
651,-0.0008334917137680087
652,-0.0007052641740866727
653,-0.0005683442493973345
654,-0.00039671052160950016
655,-0.00020891761576069534
656,-0.0001161766067730996
657,-0.00024595891682044346
658,-0.0005571335989610349
659,-0.0008517600203546971
660,-0.0009167843016442134
661,-0.0008110873261807372
662,-0.0008023142104536252
663,-0.0011795027988981133
664,-0.0019306035074626582
665,-0.0028144230179761864
666,-0.003545102174310588
667,-0.003975792340075279
668,-0.004113823608181022
669,-0.003980563936602288
670,-0.003575912931400138
671,-0.0029169748138263563
672,-0.0021965474029214116
673,-0.001659433563620083
674,-0.0014641232871986931
675,-0.0015324562790082208
676,-0.001605801134146212
677,-0.0014467822358851246
678,-0.0010714090431304113
679,-0.0007163719872887997
680,-0.0006573921677556216
681,-0.0009134710112124189
682,-0.0012954505436828523
683,-0.0015011683902976802
684,-0.001424848678382773
685,-0.001191235199647589
686,-0.0010384403525027786
687,-0.001072801909164811
688,-0.0012053771605073926
689,-0.001189601534587914
690,-0.0008625357200110484
691,-0.0002671290956713923
692,0.00043027948740226307
693,0.0010042007651889229
694,0.0013081069754493635
695,0.001356562436753972
696,0.0011730174888072709
697,0.0008088820365931282
698,0.0002871784393233545
699,-0.0003311038560698254
700,-0.0009362442112219593
701,-0.0013983926326062157
702,-0.0015918299341276532
703,-0.00155641814663654
704,-0.0014164202152335825
705,-0.0013762607025968876
706,-0.0015598434994077426
707,-0.001998673118245753
708,-0.002667721104625209
709,-0.0035322838723362837
710,-0.004568042324845867
711,-0.005708753242378184
712,-0.0068183952190875585
713,-0.007759274654173476
714,-0.008459390357183794
715,-0.008951662734726917
716,-0.009270391737118078
717,-0.00942169339477672
718,-0.00939088576892555
719,-0.009249847218722573
720,-0.009088256758781665
721,-0.008995029092363493
722,-0.008982319127657123
723,-0.008976786586129881
724,-0.00894812948201551
725,-0.00890841283073407
726,-0.00889358215345848
727,-0.008885462691880508
728,-0.008821343367212853
729,-0.008683710297199387
730,-0.008548674757245411
731,-0.008519073885739137
732,-0.008660405614156153
733,-0.008925860971024324
734,-0.009212574319445666
735,-0.009511024374551869
736,-0.009853844910706622
737,-0.010310013189865797
738,-0.010897440771947986
739,-0.011593060100290042
740,-0.012348239898621993
741,-0.013127806001698383
742,-0.013903719692062944
743,-0.014648528591085008
744,-0.015327973659808536
745,-0.0159206047534034
746,-0.016420170434250037
747,-0.016816697210895737
748,-0.017122292907278513
749,-0.017352529826380914
750,-0.017488755958081525
751,-0.0174792703007024
752,-0.017262057743060666
753,-0.016874190180631965
754,-0.016420379556492448
755,-0.015994852213302324
756,-0.015566827111509252
757,-0.015026817067451126
758,-0.014189658497160584
759,-0.013005702239661576
760,-0.011544152980584643
761,-0.009969872077826958
762,-0.008495228261417354
763,-0.007278733440042262
764,-0.006389384258980613
765,-0.005759331469343709
766,-0.005267998093838044
767,-0.004793064381694134
768,-0.0043089495510586495
769,-0.003865705922246332
770,-0.0035527212059721647
771,-0.0034035964879812752
772,-0.0034018516572489332
773,-0.0034962732171641697
774,-0.0037074852492782195
775,-0.00412445060544786
776,-0.0048661932154187015
777,-0.005976290730997258
778,-0.00736975739876522
779,-0.008801007425243146
780,-0.010001920318249646
781,-0.010755712363094805
782,-0.010991392535366518
783,-0.010761980532140059
784,-0.01025159733789549
785,-0.00962230901015293
786,-0.009004437647021968
787,-0.008380976432768472
788,-0.007723102982349572
789,-0.006964887106798434
790,-0.00617325205598751
791,-0.005472657221788024
792,-0.004988552645530775
793,-0.004752263842882409
794,-0.0046637893458569835
795,-0.004624867395181753
796,-0.004576599229774048
797,-0.004587121478378142
798,-0.004699130028241183
799,-0.004930194379274
800,-0.005204657439651927
801,-0.0055250422113174436
802,-0.005950078899427447
803,-0.006630596358934482
804,-0.007652704937115562
805,-0.008979446271389802
806,-0.010446942426710848
807,-0.01192667218644261
808,-0.013406326955348047
809,-0.014983058607156985
810,-0.01672185558266781
811,-0.018535187269597797
812,-0.02026524024762555
813,-0.02184012772742372
814,-0.023347689860977683
815,-0.02499681522057029
816,-0.026934390320596968
817,-0.029130322536678466
818,-0.031459063690114974
819,-0.033729559999119973
820,-0.03580739592777893
821,-0.037585453301068106
822,-0.03901218618823166
823,-0.04009329700792019
824,-0.04092049246118479
825,-0.04159222435495469
826,-0.04216336260592257
827,-0.04257760673285471
828,-0.04274709531216392
829,-0.04264533502900769
830,-0.04235621507818166
831,-0.042016869827567804
832,-0.04174693916754002
833,-0.041544941027590654
834,-0.04131681461865466
835,-0.04093629394834564
836,-0.04028113736113714
837,-0.039312426284709656
838,-0.03804577924217667
839,-0.03658954101636047
840,-0.03509340315190934
841,-0.03372861649650649
842,-0.032617162330281335
843,-0.03177718978959543
844,-0.031142326460968484
845,-0.03061587401844046
846,-0.0301323476958385
847,-0.029783036616748082
848,-0.0297291396576691
849,-0.030194840417744673
850,-0.03124077145450921
851,-0.032671600222061725
852,-0.03408684543807439
853,-0.03507316534513061
854,-0.03545200357278122
855,-0.03531466598774602
856,-0.034882739118920925
857,-0.034334616923992756
858,-0.03365333058476805
859,-0.0327827698780212
860,-0.031786578140101884
861,-0.030873789979635857
862,-0.030314734851974334
863,-0.03019612827411633
864,-0.030457751730645244
865,-0.03094802237790628
866,-0.031523881012842425
867,-0.03212243388153058
868,-0.03271804168849035
869,-0.033298564270926034
870,-0.03378409273475025
871,-0.03408781157490259
872,-0.034094523356225426
873,-0.03378443922520946
874,-0.03316388675516113
875,-0.03225845128969751
876,-0.031084756549390136
877,-0.029698335093309658
878,-0.028224155589044564
879,-0.026835397458618848
880,-0.02567292609486549
881,-0.024731039975288693
882,-0.023930688201803663
883,-0.023155738273735516
884,-0.02234656066636531
885,-0.021507140892611742
886,-0.020716556321344504
887,-0.02007854358462602
888,-0.019636097462332636
889,-0.019329745625196515
890,-0.019044480227644045
891,-0.01876047824260496
892,-0.018549639623229863
893,-0.018489116259127858
894,-0.01854962192695464
895,-0.018574051421161752
896,-0.01844240599620106
897,-0.018153919412005948
898,-0.01781875516110787
899,-0.01757005031462866
900,-0.01749056074759825
901,-0.017565466543343455
902,-0.017644923049457417
903,-0.017552023530315597
904,-0.017209311898733204
905,-0.016773004040671835
906,-0.016528484655181086
907,-0.016611771273467912
908,-0.016917681357475622
909,-0.0172294455971419
910,-0.017481720362591213
911,-0.017781356766426004
912,-0.018282043832989703
913,-0.019024039246379076
914,-0.01992399143691903
915,-0.020910258478457067
916,-0.02198577999505069
917,-0.023190371003326438
918,-0.024516305179115294
919,-0.025856480760921396
920,-0.0270408204547391
921,-0.027952513938242718
922,-0.02858883550614366
923,-0.02905022354419251
924,-0.02937862402089042
925,-0.029447955884570276
926,-0.02905983794760958
927,-0.028168343729662815
928,-0.027011811103062278
929,-0.026012607613627337
930,-0.025425102708529046
931,-0.025126688028791255
932,-0.024767322564619
933,-0.024124378686793624
934,-0.023244116850044683
935,-0.022304152990951787
936,-0.02136012895138195
937,-0.020315342028809247
938,-0.019098589855136572
939,-0.017782280320665422
940,-0.016571029936779724
941,-0.015600955812788198
942,-0.014865540910235842
943,-0.014260159922258264
944,-0.0136689479190657
945,-0.013042462611155492
946,-0.01236749560263617
947,-0.011629043965885044
948,-0.010780147391456718
949,-0.009805381375146971
950,-0.008747575324323464
951,-0.007743148255278776
952,-0.007025781053703772
953,-0.006677868127018316
954,-0.0066012128385541935
955,-0.006502540519749189
956,-0.006079618475523629
957,-0.005258986355235362
958,-0.004161119771032062
959,-0.0030544805404182362
960,-0.0021540254271703585
961,-0.001574774906800469
962,-0.0013699711448199592
963,-0.001508435745327108
964,-0.0018696352128513283
965,-0.002256340960446246
966,-0.002492329710943597
967,-0.002581210353307495
968,-0.002629864761474643
969,-0.00279327454558731
970,-0.003129451983519549
971,-0.0036623749046058585
972,-0.00436343115226967
973,-0.005220491994143206
974,-0.006169612380427014
975,-0.007109150691170907
976,-0.00786659097438347
977,-0.008271746460298712
978,-0.008274790610000693
979,-0.00796335925799807
980,-0.007585366619333844
981,-0.00732741507132717
982,-0.007211688512809511
983,-0.0070963174552501895
984,-0.0068178775819306425
985,-0.0063249025981269025
986,-0.005659793232778099
987,-0.004937767087072498
988,-0.0042480260628433575
989,-0.0036439025130202696
990,-0.003225254774291697
991,-0.0030571322791220767
992,-0.003186592837783553
993,-0.0035741162639763013
994,-0.0041457668525066715
995,-0.004903374147279149
996,-0.006003504542615445
997,-0.00769432794087177
998,-0.010253516642526828
999,-0.013727267579360158
1000,-0.017882797052624078
1001,-0.02211623153687836
1002,-0.02553725987899569
1003,-0.027264442505102737
1004,-0.026808700067410096
1005,-0.0244156607354008
1006,-0.021014913415363767
1007,-0.01774169205269993
1008,-0.015386900121201141
1009,-0.014093619130873924
1010,-0.013509026486835718
1011,-0.013158366939443833
1012,-0.012758405846066023
1013,-0.01221703719770173
1014,-0.011548457507316034
1015,-0.010870042719244633
1016,-0.010286728642934007
1017,-0.009938168350182353
1018,-0.009826608168475026
1019,-0.009918747919561488
1020,-0.010148949943386332
1021,-0.010538450080065709
1022,-0.011124470548159904
1023,-0.01188659648560153
1024,-0.012808265939807773
1025,-0.013885445704897914
1026,-0.015144776579823827
1027,-0.0165688723209636
1028,-0.018057036966240947
1029,-0.01949439654408347
1030,-0.02081232151411716
1031,-0.022028356235627378
1032,-0.0231509625213564
1033,-0.02416490322977971
1034,-0.02508817763986615
1035,-0.02596099855030043
1036,-0.02681330224441858
1037,-0.0276589314753648
1038,-0.028486636349995265
1039,-0.029318469984555895
1040,-0.03021132837132179
1041,-0.031262081031197764
1042,-0.03245825677750036
1043,-0.033694457584424686
1044,-0.034718350338302506
1045,-0.03531686397995004
1046,-0.03548369526145134
1047,-0.03540711732838464
1048,-0.03531460104654427
1049,-0.03528846088073012
1050,-0.03520371342052031
1051,-0.03488259234709301
1052,-0.03422723169279718
1053,-0.033270127231861624
1054,-0.0320785551830729
1055,-0.03072708332275531
1056,-0.029271681170246144
1057,-0.027814972925561676
1058,-0.02655403408128687
1059,-0.025696595113890552
1060,-0.02530306677502603
1061,-0.025206862102640115
1062,-0.025189128550639706
1063,-0.02514727644435344
1064,-0.02517437765802899
1065,-0.02532452839828414
1066,-0.025432916668643224
1067,-0.025288305273489242
1068,-0.024948424383145373
1069,-0.0247779774623611
1070,-0.025141366055429937
1071,-0.026059764626059523
1072,-0.027216089191738124
1073,-0.028384707071464232
1074,-0.02960886922766104
1075,-0.031066636343110576
1076,-0.032818455763557575
1077,-0.034695223186538615
1078,-0.03653278385722247
1079,-0.03824688526840658
1080,-0.03976432220484216
1081,-0.04099854648366108
1082,-0.04181382664936639
1083,-0.04221552335183221
1084,-0.04231634551060903
1085,-0.04220633535431728
1086,-0.04193605768974806
1087,-0.04156205612580299
1088,-0.041178295856344804
1089,-0.04082349271399832
1090,-0.0404215138713957
1091,-0.039847970822519785
1092,-0.03904891758617057
1093,-0.03810013671691714
1094,-0.037078346306192556
1095,-0.03601303982351911
1096,-0.0348766753635823
1097,-0.033704368823110564
1098,-0.03249573072473466
1099,-0.03121720208491041
1100,-0.029810501029313707
1101,-0.028294517506306405
1102,-0.026795044907788612
1103,-0.025447868137497442
1104,-0.024316157875722166
1105,-0.0233801352707963
1106,-0.022546925315396038
1107,-0.021772310190747768
1108,-0.02108202034799478
1109,-0.020563251132022398
1110,-0.020262912809877465
1111,-0.020105651150602255
1112,-0.019966776439287792
1113,-0.019765764293878996
1114,-0.019539887047720472
1115,-0.01935389157061207
1116,-0.019309128569410916
1117,-0.01950192558612107
1118,-0.019990688255598243
1119,-0.020677374155519845
1120,-0.02143200679181234
1121,-0.022161753035868204
1122,-0.02297491583518485
1123,-0.023963827826049666
1124,-0.025130702770549407
1125,-0.026230475865878455
1126,-0.02689687612371172
1127,-0.026860948217209746
1128,-0.026160165676110902
1129,-0.025107231049699252
1130,-0.024044442930312715
1131,-0.023055772570961586
1132,-0.021920979490086756
1133,-0.02052979103367103
1134,-0.01904679640069995
1135,-0.01776411799480393
1136,-0.016698328730142986
1137,-0.01561724477305193
1138,-0.014317112919071784
1139,-0.012792112078872764
1140,-0.011131803643467664
1141,-0.009370034399378335
1142,-0.007577578470215562
1143,-0.0059292880322824315
1144,-0.004618226967225247
1145,-0.0037003113138480703
1146,-0.0030461899113904956
1147,-0.002565894047672379
1148,-0.0022571514879109467
1149,-0.002142091130323154
1150,-0.0021685197727611127
1151,-0.002257801809412374
1152,-0.002367175529130572
1153,-0.0025304506734903365
1154,-0.0027217134065450344
1155,-0.0028434280835195613
1156,-0.002861963180417648
1157,-0.002840109742703989
1158,-0.002776610048605077
1159,-0.002504371470060107
1160,-0.0018558473435742462
1161,-0.0009753146887715447
1162,-0.0002598221576580739
1163,-8.372903278863753e-05
1164,-0.0004288507890587434
1165,-0.0009858157337860884
1166,-0.0015103393982307534
1167,-0.001897052396245602
1168,-0.0021288674620479897
1169,-0.002208276175846291
1170,-0.002273520465232437
1171,-0.002546520144584452
1172,-0.003084612871415593
1173,-0.003614712287284272
1174,-0.0038077447304426526
1175,-0.0036009088329085337
1176,-0.003240618133436457
1177,-0.0029397737219304387
1178,-0.002702001422540956
1179,-0.002433199949357423
1180,-0.002056765431847296
1181,-0.00163911791793514
1182,-0.0012263157389944546
1183,-0.0008727143294692263
1184,-0.000620259305031734
1185,-0.00041610292506955027
1186,-0.00022533972527982726
1187,-6.929617357387396e-05
1188,-5.499248531271039e-05
1189,-0.0002638921265031291
1190,-0.0006515371627003885
1191,-0.001099717745459805
1192,-0.0015547280410782571
1193,-0.002006395235230718
1194,-0.00246823703072796
1195,-0.002964501515547169
1196,-0.0035926872129893317
1197,-0.004407962544288324
1198,-0.0053256560640898565
1199,-0.0061600770563087215
1200,-0.006912918461516981
1201,-0.007844116658222045
1202,-0.009169884579853016
1203,-0.010788223142547904
1204,-0.012277833517154946
1205,-0.01334495419915227
1206,-0.014006799457888075
1207,-0.014486335685749752
1208,-0.014960777761427235
1209,-0.015319938799081667
1210,-0.015361690012822615
1211,-0.014971983828539703
1212,-0.014332040856982031
1213,-0.013716110351317257
1214,-0.013315542132326108
1215,-0.013146550020356473
1216,-0.013165233879040894
1217,-0.013388542501647116
1218,-0.013783736782106204
1219,-0.014254708582257303
1220,-0.014682088076996003
1221,-0.01509829014984676
1222,-0.015628818322743543
1223,-0.01637791123817489
1224,-0.01726132606896935
1225,-0.018166482759801816
1226,-0.01916112236395784
1227,-0.020397144109146947
1228,-0.021880959529611665
1229,-0.023318024884202537
1230,-0.024373522406450743
1231,-0.02495713128652355
1232,-0.025310313324776845
1233,-0.025625838508525622
1234,-0.025957840787205866
1235,-0.026261773066854066
1236,-0.026591284231624046
1237,-0.026949750846833043
1238,-0.0272933760509384
1239,-0.027561158457324098
1240,-0.027831085279891976
1241,-0.028238661577929536
1242,-0.028713796898803268
1243,-0.02902839189733175
1244,-0.029099945205655176
1245,-0.02916141175037701
1246,-0.029487656148960317
1247,-0.03003803556270479
1248,-0.03046514991043603
1249,-0.030531988435599122
1250,-0.030306627635501182
1251,-0.030007542736160908
1252,-0.029693262358775896
1253,-0.029310184811753404
1254,-0.02893449020993555
1255,-0.028761596036404935
1256,-0.02890086873537856
1257,-0.02919584681249643
1258,-0.02941897613500921
1259,-0.029474719138962824
1260,-0.029385868326155196
1261,-0.029175429703479194
1262,-0.028894285296646505
1263,-0.02863908341840604
1264,-0.02854910303091862
1265,-0.02867158813613857
1266,-0.028881853085332976
1267,-0.028939591895166705
1268,-0.02868153557648978
1269,-0.02809088764102663
1270,-0.027347196408408325
1271,-0.0266393090068886
1272,-0.026144772135333172
1273,-0.025946973120461014
1274,-0.025972445015620904
1275,-0.02595036430284492
1276,-0.025732944820002213
1277,-0.02546113972722952
1278,-0.02551222542402387
1279,-0.026007749942600356
1280,-0.026610227017841992
1281,-0.026916132377902247
1282,-0.02689413063729562
1283,-0.0269118874081673
1284,-0.0272342733175569
1285,-0.027840131735077045
1286,-0.028483051122462855
1287,-0.029016849062746486
1288,-0.029550555552281366
1289,-0.030233928571056
1290,-0.03106857984163125
1291,-0.03194151366843134
1292,-0.03280429444584154
1293,-0.03376508913117182
1294,-0.03494348871443842
1295,-0.03618679530075941
1296,-0.037246780857669304
1297,-0.0379940305217874
1298,-0.03852753502444617
1299,-0.038997526072748534
1300,-0.0394457579899985
1301,-0.03983998651671217
1302,-0.04009989036538142
1303,-0.040184917594441316
1304,-0.04017448853484973
1305,-0.040189415787823535
1306,-0.04022927079657446
1307,-0.04016672275717881
1308,-0.039895617851257614
1309,-0.03960423897118659
1310,-0.03958650461932178
1311,-0.03990301650791661
1312,-0.04029647492195354
1313,-0.04048113861297398
1314,-0.04037566043854157
1315,-0.04004527638349542
1316,-0.03959355057981606
1317,-0.03908618939642816
1318,-0.038569300177068055
1319,-0.03812992000825477
1320,-0.03782766443321972
1321,-0.03753737857074302
1322,-0.03695235474091463
1323,-0.0358505957306936
1324,-0.034444128955476105
1325,-0.033234624167030935
1326,-0.03261176018854617
1327,-0.03255325857672764
1328,-0.032837698611603794
1329,-0.033270801147232576
1330,-0.033820022962581686
1331,-0.034439686148534876
1332,-0.035064197847652134
1333,-0.03561194604445239
1334,-0.036053708302544285
1335,-0.0363985843729584
1336,-0.03668414598184622
1337,-0.03693010540521202
1338,-0.037029899047833936
1339,-0.036866787615928875
1340,-0.036511133973094356
1341,-0.036108618993307084
1342,-0.03570677391819643
1343,-0.035154436623560326
1344,-0.0343444082774631
1345,-0.033459678276086535
1346,-0.03270470888548782
1347,-0.032045844847881644
1348,-0.03123113192932092
1349,-0.0301517637930091
1350,-0.02901225565595189
1351,-0.02799416059513027
1352,-0.02695776801153693
1353,-0.02553348531325972
1354,-0.02366495585981787
1355,-0.021805657589506255
1356,-0.020411857493748076
1357,-0.019519372217306485
1358,-0.018730110499464825
1359,-0.0178266413259367
1360,-0.01700966286526806
1361,-0.016530552446752722
1362,-0.01636662419200341
1363,-0.01630234150005605
1364,-0.01623815466116485
1365,-0.016243958630960953
1366,-0.0163129950081633
1367,-0.01632507224672719
1368,-0.01623465645383637
1369,-0.016120855449029192
1370,-0.016127556551042255
1371,-0.016289466048559964
1372,-0.016641591772045605
1373,-0.017223788997140943
1374,-0.017950539638318608
1375,-0.01859153778630296
1376,-0.019083045662323772
1377,-0.01959740791685438
1378,-0.0203067138828823
1379,-0.021031312288616433
1380,-0.02137860569219663
1381,-0.021180328521004044
1382,-0.02067263683869458
1383,-0.020172568583195716
1384,-0.01977425860713311
1385,-0.019314009625950312
1386,-0.01860744985626328
1387,-0.017661779490119378
1388,-0.016598250537711245
1389,-0.015562456376955525
1390,-0.014604716936465922
1391,-0.013645051135899755
1392,-0.0126160375608656
1393,-0.011567809559408171
1394,-0.010625766878535892
1395,-0.009934461040443043
1396,-0.009432758671330643
1397,-0.00896137623367177
1398,-0.008427237858758208
1399,-0.007859636151532179
1400,-0.007323466840657211
1401,-0.006871520819815347
1402,-0.006564575972412334
1403,-0.0063725634976322665
1404,-0.006103263210419874
1405,-0.00552343322004234
1406,-0.004721831843972568
1407,-0.004064014976725372
1408,-0.003826534378675528
1409,-0.003929987605443608
1410,-0.004200629277913648
1411,-0.004561855053278108
1412,-0.004936387343527415
1413,-0.005115988492527257
1414,-0.005128655418339179
1415,-0.0053083621783929225
1416,-0.00593345563544545
1417,-0.006846453944617248
1418,-0.007665271478974778
1419,-0.008093500744396964
1420,-0.00808734642478437
1421,-0.007776353050283347
1422,-0.007414441937673488
1423,-0.007322408703333894
1424,-0.007681460061319645
1425,-0.008458316129304033
1426,-0.00946993684721198
1427,-0.010499202176822986
1428,-0.011439637846049844
1429,-0.012479808537982473
1430,-0.014010678986754455
1431,-0.01623757793636582
1432,-0.019002796289271484
1433,-0.02201799578672725
1434,-0.025102604564619435
1435,-0.028133899496819104
1436,-0.030961710035304568
1437,-0.03351918387288966
1438,-0.03581785572431884
1439,-0.03784020747391792
1440,-0.03964695270741436
1441,-0.04144124114944947
1442,-0.04345100995024043
1443,-0.0456526049114816
1444,-0.047948035082976515
1445,-0.050382217735665424
1446,-0.05303990146671733
1447,-0.055717078773607986
1448,-0.0580893976744421
1449,-0.060131676347405905
1450,-0.062109918043070644
1451,-0.06412005370935436
1452,-0.06587006027450015
1453,-0.06706241224522391
1454,-0.06765824054457226
1455,-0.06776011163674278
1456,-0.06737951973065759
1457,-0.06649483145162227
1458,-0.06523207088938587
1459,-0.06378907350005936
1460,-0.06217962112436137
1461,-0.06012071836826571
1462,-0.05724663070272651
1463,-0.05353082759056138
1464,-0.04935339862981725
1465,-0.04525822532183765
1466,-0.04149983748484731
1467,-0.0379934783235224
1468,-0.03444730280269992
1469,-0.030758072117569202
1470,-0.0271268609041192
1471,-0.02390267510902533
1472,-0.021146298881728587
1473,-0.01849943928686537
1474,-0.015657398744138296
1475,-0.012850390253893118
1476,-0.010656648037648764
1477,-0.009231421431108111
1478,-0.008133875853358563
1479,-0.006913140254857453
1480,-0.005711059985659128
1481,-0.0048926624470068125
1482,-0.004342443537965979
1483,-0.0035721049859673837
1484,-0.0023385986215738175
1485,-0.0008526578223642112
1486,0.0006374331050598148
1487,0.002032027921838764
1488,0.0033060483340581204
1489,0.004437642677581954
1490,0.005476669434773429
1491,0.006461230907707338
1492,0.007382664332506006
1493,0.00833211912814058
1494,0.009522437079691137
1495,0.01104235912427709
1496,0.01263416011701235
1497,0.013825731444128575
1498,0.014377788316220164
1499,0.01448645467554388
1500,0.014663547680355049
1501,0.015238587737745335
1502,0.016010552211979
1503,0.016533933419313862
1504,0.016660737316696816
1505,0.016761652408038397
1506,0.01727663700956361
1507,0.018171619075127654
1508,0.018902340432586096
1509,0.018999065011481076
1510,0.018690826306838493
1511,0.018630458206786882
1512,0.01910680092165795
1513,0.019762679551067586
1514,0.020229106420239562
1515,0.020648921128855968
1516,0.021296892278345303
1517,0.021951350143327164
1518,0.022123607709049753
1519,0.0217195130386324
1520,0.02120362627692951
1521,0.02125020314032089
1522,0.021942576102632838
1523,0.02260599557349896
1524,0.02246356821497053
1525,0.02154673163188392
1526,0.02073704588666181
1527,0.020737188250334326
1528,0.021450433578734773
1529,0.022437814369425935
1530,0.023459653443891004
1531,0.02438370678876367
1532,0.02480919293255368
1533,0.02445012104219557
1534,0.0235890458035245
1535,0.022821771993396855
1536,0.022340200487923068
1537,0.02199911864384918
1538,0.021808445635042473
1539,0.02195865589113044
1540,0.022413951829739487
1541,0.02284502987946979
1542,0.023035788701728066
1543,0.023043069567619923
1544,0.022929419249615002
1545,0.02280623964830697
1546,0.022925565286262328
1547,0.023305273363148693
1548,0.023427998494992996
1549,0.02283462450717766
1550,0.021906022995577756
1551,0.021516856643806648
1552,0.02192617194406643
1553,0.02251633823797139
1554,0.022804756206298293
1555,0.022924346455346578
1556,0.02316643224418269
1557,0.023391817370171153
1558,0.023384570233413227
1559,0.02322551390717964
1560,0.023211024225425203
1561,0.023419242788837003
1562,0.02355533931094489
1563,0.023167982157117795
1564,0.022146157354845486
1565,0.021034805814610924
1566,0.020543782228836127
1567,0.020766753847474506
1568,0.021065753111572327
1569,0.02091457784665851
1570,0.020421319415076966
1571,0.019832978803360657
1572,0.01914504174351006
1573,0.018327805596287994
1574,0.017651647921642866
1575,0.017532973483750602
1576,0.01806163338397082
1577,0.018859274144872318
1578,0.01940019443086005
1579,0.019650808288286914
1580,0.02000179157308901
1581,0.02061428220780348
1582,0.021151745463738103
1583,0.02139523289414813
1584,0.02171296472302786
1585,0.022501466093439948
1586,0.023633163827298853
1587,0.024654193789876877
1588,0.025407599257048497
1589,0.026006793342147616
1590,0.026502537541325255
1591,0.026961916899097438
1592,0.027497695545303458
1593,0.027962053231232242
1594,0.027972806675000683
1595,0.027487909262814858
1596,0.026919330715085565
1597,0.026566387721849827
1598,0.026350490182437958
1599,0.026104940109898944
1600,0.025842757532613003
1601,0.02539050946172916
1602,0.024469654815518438
1603,0.023109262271328923
1604,0.021817970005855836
1605,0.021174573815370246
1606,0.02150018482000604
1607,0.022780740178509173
1608,0.024633391761293533
1609,0.026389278827320783
1610,0.027384131080188112
1611,0.027333694648508433
1612,0.0264505668911571
1613,0.025149044006618992
1614,0.023757356657044038
1615,0.022492451594033014
1616,0.021739015884183588
1617,0.0218490773995208
1618,0.022582492034227797
1619,0.023168313853483724
1620,0.023224499612611638
1621,0.023345841349118435
1622,0.02421542901854934
1623,0.025509110174009697
1624,0.026164849913045685
1625,0.02588702180876834
1626,0.0255609463254709
1627,0.02587423844917547
1628,0.026221916533043732
1629,0.02556558358191674
1630,0.024254331187500755
1631,0.02379418795472632
1632,0.024657033684739704
1633,0.025446607411384936
1634,0.024876171228884858
1635,0.023613728979264836
1636,0.02300704982361479
1637,0.023109106935599644
1638,0.022815342661215876
1639,0.021249105843295313
1640,0.018556740083118473
1641,0.0158187781405561
1642,0.014282990430295572
1643,0.013963611007142718
1644,0.013440867261583889
1645,0.011576680654179494
1646,0.008592763426133465
1647,0.005293183193481932
1648,0.002194199035197353
1649,-0.00021067192029944337
1650,-0.0016923510109295714
1651,-0.0030362066141439437
1652,-0.005208546762421107
1653,-0.007706605490606977
1654,-0.009045119381840827
1655,-0.009046666733191877
1656,-0.009037669604741727
1657,-0.0098069879088587
1658,-0.01044659000675352
1659,-0.010010567132396897
1660,-0.008992168097084585
1661,-0.008505089659001208
1662,-0.008639160734450146
1663,-0.008560984251517079
1664,-0.00802428010873013
1665,-0.007684748651438866
1666,-0.007883886637921611
1667,-0.008108132078190833
1668,-0.007987207895791548
1669,-0.007818378278222071
1670,-0.0077842694189494965
1671,-0.0074731142278300355
1672,-0.006543984897037003
1673,-0.005337994496538823
1674,-0.004433127920204671
1675,-0.003919776167941369
1676,-0.0033137677082554218
1677,-0.0023065291195097926
1678,-0.0010725230764486726
1679,-2.6927174892055206e-05
1680,0.0005861601200398692
1681,0.0009296877951736615
1682,0.0014624597350958446
1683,0.0023621966849227682
1684,0.0031569330463371292
1685,0.00338633844116476
1686,0.0034178238312290166
1687,0.0040432251351077975
1688,0.005309925187800935
1689,0.006703321923802852
1690,0.007873685331077018
1691,0.008607409590877468
1692,0.008620218124567147
1693,0.008097328409176319
1694,0.007759129418968169
1695,0.008010577605817137
1696,0.008558878699941097
1697,0.009009390366848335
1698,0.009122347915941131
1699,0.008784999688213002
1700,0.008214175771944054
1701,0.007759185701968985
1702,0.007429048710376751
1703,0.0069221177066615125
1704,0.006435484248330292
1705,0.006534373001656046
1706,0.007046808451116493
1707,0.00721661553470665
1708,0.006844144097916893
1709,0.006410008044578364
1710,0.006179684260486984
1711,0.006091225052109905
1712,0.006161033475666988
1713,0.006165880773356891
1714,0.005510554495354536
1715,0.0040292781352931906
1716,0.0024240342622346978
1717,0.00120282097614699
1718,-4.0339085950136244e-05
1719,-0.0015873925164126002
1720,-0.0026649511725003183
1721,-0.00249166378410548
1722,-0.0015831337202257822
1723,-0.0013365557898775693
1724,-0.0023266951397259428
1725,-0.0037722783050038178
1726,-0.004540667049473979
1727,-0.004127587594380477
1728,-0.0030226297176079164
1729,-0.0021999704177643187
1730,-0.002211356264460451
1731,-0.0026578646057741073
1732,-0.0028812991847420033
1733,-0.0028157722574967403
1734,-0.0027787469892992522
1735,-0.0028823030260063387
1736,-0.0028915902322339537
1737,-0.0024857562939117894
1738,-0.0014940968286548673
1739,-0.00022600928214744354
1740,0.0006388026406372038
1741,0.0008307516898699019
1742,0.0008401520469835111
1743,0.001357788591026421
1744,0.0023975572466963246
1745,0.003421792320756456
1746,0.004174335245033967
1747,0.004994706849778097
1748,0.006037623541040094
1749,0.006883713487166876
1750,0.007243870179704404
1751,0.0073594284346780725
1752,0.0075894313652261625
1753,0.008168299965691572
1754,0.009239994501535564
1755,0.010545216243843414
1756,0.011625096972140092
1757,0.012597877126915291
1758,0.01411939046694266
1759,0.016148357430810556
1760,0.017804419157424478
1761,0.018504358887819428
1762,0.0186848253712385
1763,0.01929196125304533
1764,0.020735281746528722
1765,0.022448583788232557
1766,0.023667816250943163
1767,0.02437703848712891
1768,0.025163637716391185
1769,0.026229605118306076
1770,0.027367287463389456
1771,0.02855413694725617
1772,0.029728013597633773
1773,0.030381483866473546
1774,0.03013005331355323
1775,0.02930527705107533
1776,0.028719899250804426
1777,0.02885328559227318
1778,0.029530270181182372
1779,0.0300991797149055
1780,0.030148634082391323
1781,0.0299017100662744
1782,0.02991928635547514
1783,0.03052868699503264
1784,0.03145646604488905
1785,0.032281803144982524
1786,0.032835143708156544
1787,0.03310436282476836
1788,0.03290320186501816
1789,0.03224238829650261
1790,0.0318270676802046
1791,0.032291695862591174
1792,0.033151110785230364
1793,0.03334262516244291
1794,0.032584629083006744
1795,0.03174959721842019
1796,0.031796027370446955
1797,0.03262445711433448
1798,0.03344191725386403
1799,0.03397693093115561
1800,0.034397618242982264
1801,0.03433262384956404
1802,0.03345057418016506
1803,0.03248974881174638
1804,0.03238537995449864
1805,0.03304951286161151
1806,0.03392179137459628
1807,0.034670189400293316
1808,0.03506473446960867
1809,0.03499948109832485
1810,0.034771432916967826
1811,0.03472714814270794
1812,0.034766852112632085
1813,0.03459321950300609
1814,0.034212557044372205
1815,0.033978615848944016
1816,0.03407038716249977
1817,0.03419179795395266
1818,0.034083798011844024
1819,0.033781324543147195
1820,0.03349482259630532
1821,0.03358606428215016
1822,0.0343446137747202
1823,0.03529088166167904
1824,0.0355152753747654
1825,0.035116525607128746
1826,0.0350704954992106
1827,0.03555987901646529
1828,0.03565137910945315
1829,0.034945906696042806
1830,0.03432215159183183
1831,0.034515622656631995
1832,0.03517233902417005
1833,0.03572000336276926
1834,0.03614172279310801
1835,0.03638048783947734
1836,0.03616010307472217
1837,0.0357656056095772
1838,0.0358211827625744
1839,0.036227504503953845
1840,0.036354420975376334
1841,0.03599557897954675
1842,0.035278849889589514
1843,0.03440700872922986
1844,0.033966122082473404
1845,0.03437956614502102
1846,0.03499293795857583
1847,0.03488242888265536
1848,0.03445499868710378
1849,0.03478416373779858
1850,0.035632218544515815
1851,0.035759511055118764
1852,0.03730540823568451
1853,0.039194962933002175
1854,0.038698290062650686
1855,0.038259389272621847
1856,0.03795300324449902
1857,0.03776040984092022
1858,0.03765821061124586
1859,0.037736232175129
1860,0.038008797669047634
1861,0.03842513484681909
1862,0.03880288856495551
1863,0.038999985561592565
1864,0.03900731133603541
1865,0.038904591129849675
1866,0.03883477431903404
1867,0.038830858456848305
1868,0.038789562466229
1869,0.03860533942415634
1870,0.03830577152593195
1871,0.038093320975185585
1872,0.03824384449824092
1873,0.03884336172696479
1874,0.0397247296966452
1875,0.04051289851405793
1876,0.04089440065835637
1877,0.040737503008180576
1878,0.040168155094178704
1879,0.039440725318967584
1880,0.038851072870954684
1881,0.038607462784742363
1882,0.038757449640561714
1883,0.03912276981946938
1884,0.03945345634008024
1885,0.03957759418877804
1886,0.03951444238367485
1887,0.03935661565465409
1888,0.03924857842459051
1889,0.03924871186029044
1890,0.03935734578925887
1891,0.03951294794182547
1892,0.03967110284673159
1893,0.03979415406877396
1894,0.039890430097274554
1895,0.039965533816581744
1896,0.040040341089375486
1897,0.04004061697130834
1898,0.039943751337752964
1899,0.039789279270096456
1900,0.03967579923381681
1901,0.039676272899578535
1902,0.039762145806348625
1903,0.03984244419777716
1904,0.039923690135946766
1905,0.04010916399008135
1906,0.04039453197412002
1907,0.04065724250240954
1908,0.04069306000560613
1909,0.040451700688008185
1910,0.04012633654445252
1911,0.03995574444885197
1912,0.039986335622308355
1913,0.04010313740095306
1914,0.040149626841845865
1915,0.04006519174616152
1916,0.03993889659129346
1917,0.03989622514183655
1918,0.03990946348527169
1919,0.039910164668646275
1920,0.039812667962006
1921,0.039628234353101366
1922,0.03946865427298929
1923,0.039463725425197604
1924,0.03965112089396483
1925,0.03994264825612737
1926,0.040199985250432335
1927,0.040386661080611064
1928,0.04051516937448474
1929,0.04059169956696784
1930,0.040598555298376415
1931,0.04050808372326775
1932,0.040357842012962
1933,0.0402491038124555
1934,0.04023150455141444
1935,0.040245672762654894
1936,0.04017827829089071
1937,0.0400390937829852
1938,0.0399506395238336
1939,0.0400578779652796
1940,0.04041996285045657
1941,0.040939457122237566
1942,0.041460006259198434
1943,0.041874179995313954
1944,0.04212281206321444
1945,0.04220556297252598
1946,0.04213482173400285
1947,0.04196465371075686
1948,0.0417662479125156
1949,0.04162695901104663
1950,0.041591411425765834
1951,0.04165963419298924
1952,0.041766236582658545
1953,0.04186981707853754
1954,0.042043523670635574
1955,0.042343274928798746
1956,0.04274113476396013
1957,0.04311233663428715
1958,0.04329644230314389
1959,0.04327970810252113
1960,0.04321883669024851
1961,0.04328122457973016
1962,0.04343536255301583
1963,0.043533955698383586
1964,0.04344924552209628
1965,0.043319344084003286
1966,0.043427050948605994
1967,0.04389417449469368
1968,0.044491988620972034
1969,0.044891268935447703
1970,0.04497161900595026
1971,0.04490200820002166
1972,0.04497355623599164
1973,0.0452330190120146
1974,0.04547105716496247
1975,0.04547632650909028
1976,0.04523598501208004
1977,0.04498214071131157
1978,0.04490507626888063
1979,0.04507598048838646
1980,0.045475641200006134
1981,0.04598184896485047
1982,0.04650196100048376
1983,0.04692826902216707
1984,0.04711979772907604
1985,0.04706114704762032
1986,0.04682368838429185
1987,0.04664464177403982
1988,0.04673881653059897
1989,0.04719339300106373
1990,0.04790249594631146
1991,0.04862435786342656
1992,0.04913527851989086
1993,0.04928432165205132
1994,0.04905173013796105
1995,0.0485404527399137
1996,0.047907535814896485
1997,0.04739110233590238
1998,0.047181741374834774
1999,0.0473024348877118
2000,0.0475714176448111
2001,0.047786428935134295
2002,0.04784467441894169
2003,0.04783454946610732
2004,0.04787388020821959
2005,0.04796153688910598
2006,0.04795703220492065
2007,0.04776142514281656
2008,0.047411348674892495
2009,0.047142514279668646
2010,0.047128356787164316
2011,0.04739847703373978
2012,0.04780638752095223
2013,0.04818612288283486
2014,0.0484399214152319
2015,0.04853783805886924
2016,0.04850846289442878
2017,0.048443122637773284
2018,0.04851676099718549
2019,0.04882737607750587
2020,0.04923883198391743
2021,0.04952997933041814
2022,0.04962713153479714
2023,0.049699316594756016
2024,0.049896741961455215
2025,0.050127903704953236
2026,0.05007746259569468
2027,0.04954504684490435
2028,0.04867522635439325
2029,0.04791081713106771
2030,0.04765658668736039
2031,0.04803495313694217
2032,0.04884095329409943
2033,0.04970228568578838
2034,0.05023553210086118
2035,0.050294876939156574
2036,0.04992240441228124
2037,0.049347702601780785
2038,0.04878801662417942
2039,0.048411456428579025
2040,0.04833981786510355
2041,0.048593042754008886
2042,0.04907700899486456
2043,0.04967594805930764
2044,0.05022502009135876
2045,0.05057989153534004
2046,0.050590291869213044
2047,0.050272299749120286
2048,0.04979835398984633
2049,0.0494911565969417
2050,0.04954816677621088
2051,0.049909681754636503
2052,0.05046846421053908
2053,0.05117756732366552
2054,0.052044923658432274
2055,0.05279594862430448
2056,0.0530042816197539
2057,0.052433590657922746
2058,0.05145721755242061
2059,0.05080376360774652
2060,0.05090935745048786
2061,0.051524292926453996
2062,0.051949776905800826
2063,0.05174812441084009
2064,0.05106194721054902
2065,0.05040355620064696
2066,0.0501413352994825
2067,0.05030745992717656
2068,0.05067990409347767
2069,0.05112340329365728
2070,0.0515516482149323
2071,0.051927765388890434
2072,0.05214832130129432
2073,0.05211985700884236
2074,0.051908235689721915
2075,0.0516683432618269
2076,0.05155541273547537
2077,0.051549250429611226
2078,0.05157336399172274
2079,0.05158706670259017
2080,0.05163691903398526
2081,0.05176079570215697
2082,0.051890435555728254
2083,0.05187809533259724
2084,0.0517288557821417
2085,0.05161330379565909
2086,0.05177975851764882
2087,0.052203079684728704
2088,0.052675291938422575
2089,0.052913033330280634
2090,0.05288278968615545
2091,0.052767694568371826
2092,0.05276257629025094
2093,0.05292242689503601
2094,0.05314011784481887
2095,0.053262885795838044
2096,0.05320252318649643
2097,0.05292341454592997
2098,0.052485062287954576
2099,0.05196543213372229
2100,0.05150756087464603
2101,0.05124492632674582
2102,0.0512627034590335
2103,0.05157199677211899
2104,0.05206722113242479
2105,0.05254189866651038
2106,0.05276041803977449
2107,0.05269530352037499
2108,0.0525634619196399
2109,0.05264222400591412
2110,0.05301692585470885
2111,0.05350541205126402
2112,0.05384172360173689
2113,0.053949168956484606
2114,0.05392903345461009
2115,0.05389564890151555
2116,0.053873157335305066
2117,0.05391100556618289
2118,0.054055457802546614
2119,0.054196820744523144
2120,0.054058314012818465
2121,0.05354722245783694
2122,0.05301010410078533
2123,0.052991923884255
2124,0.053567167575424124
2125,0.05415917419168059
2126,0.054079496907314506
2127,0.05329012323643123
2128,0.05249406308429905
2129,0.05241643516993377
2130,0.053151204595019874
2131,0.05423152253405128
2132,0.055149322391694344
2133,0.05568457838808394
2134,0.05580806482927625
2135,0.055613440398522895
2136,0.055133496532878135
2137,0.05442926086193767
2138,0.05355586823245739
2139,0.05262019610483193
2140,0.051853801180803405
2141,0.0516085773829732
2142,0.052105030702281896
2143,0.053123864325255954
2144,0.054053446500617164
2145,0.05439032628093832
2146,0.054132206847760767
2147,0.053668245177604046
2148,0.053396180387988545
2149,0.05334920798303133
2150,0.0532987946268586
2151,0.053146992966214834
2152,0.05295713817794756
2153,0.05282319759117737
2154,0.05275557101085471
2155,0.052768430583221004
2156,0.05291983164816594
2157,0.053226956070852816
2158,0.05352618573208545
2159,0.05354637025847475
2160,0.05315306662623709
2161,0.05251264776334308
2162,0.05201914382129602
2163,0.05193598892193074
2164,0.05228561766212736
2165,0.052815352654024816
2166,0.05321311093306125
2167,0.0532280175116463
2168,0.052866864424052085
2169,0.05242200347855819
2170,0.05224183788291137
2171,0.05248702302261388
2172,0.052925978214774294
2173,0.053089223430697885
2174,0.05276379778439255
2175,0.052183965372133545
2176,0.05177825889539989
2177,0.05176770791117258
2178,0.05188148982141538
2179,0.05174396558686234
2180,0.05129972982330744
2181,0.050924388802164655
2182,0.050960519768985524
2183,0.051339612410664426
2184,0.051704418059404955
2185,0.051801956087176415
2186,0.05177584817181635
2187,0.05192790657089952
2188,0.05238569060977438
2189,0.05299625129530117
2190,0.05346771477014467
2191,0.05355974266247654
2192,0.05320846222338138
2193,0.05255550076779536
2194,0.05189342489460036
2195,0.05145380670449462
2196,0.051232987809625596
2197,0.0509791648160598
2198,0.050548052497861096
2199,0.0501626145234465
2200,0.050168519927563215
2201,0.050548188530198934
2202,0.050765690661311313
2203,0.0502905537634456
2204,0.04914412236544463
2205,0.04802874201052176
2206,0.0476895787643804
2207,0.04827701107267657
2208,0.04919355481192689
2209,0.0497742119909651
2210,0.049688335065717903
2211,0.049156242675699624
2212,0.048611899705712225
2213,0.04834325706577247
2214,0.04844662640071051
2215,0.04877194620308212
2216,0.049143288479001956
2217,0.049388999894606544
2218,0.049513703729420544
2219,0.04957622021055441
2220,0.0495623533914159
2221,0.04930419774664907
2222,0.04869476826079733
2223,0.047898592611944735
2224,0.0473336622674938
2225,0.04728194704348743
2226,0.047654642820162296
2227,0.04804428260218019
2228,0.04814138005786195
2229,0.047945530440146156
2230,0.04776267787682409
2231,0.04778147375298125
2232,0.04799969171521534
2233,0.048256251539848916
2234,0.04840714800573209
2235,0.04839418748410951
2236,0.04825045506968706
2237,0.0480640269100554
2238,0.0479446659320335
2239,0.04792394196009253
2240,0.047929201407332256
2241,0.047833838408488316
2242,0.047680469983080176
2243,0.04759313255608599
2244,0.04771336952478811
2245,0.04804042650617535
2246,0.04850890205935443
2247,0.048956240990772226
2248,0.04919734553677668
2249,0.04902514826638715
2250,0.048392321024513074
2251,0.047578044961238075
2252,0.04703399257376273
2253,0.047018577198244094
2254,0.0473988186975316
2255,0.04786597671675463
2256,0.04818243537538469
2257,0.04824609090490195
2258,0.048020213425048586
2259,0.04756733331424523
2260,0.047151683060914884
2261,0.04707196638163713
2262,0.04733928324557379
2263,0.047650976676673285
2264,0.0477655826083192
2265,0.04777824127607011
2266,0.047966995017070024
2267,0.04832332817295393
2268,0.04846152768609746
2269,0.048160085020178434
2270,0.04765142869924133
2271,0.04748766776647628
2272,0.04796915509882094
2273,0.048818549707777326
2274,0.049505070217462976
2275,0.04967339786638325
2276,0.04942282724783997
2277,0.049053054455542644
2278,0.0487431889111033
2279,0.04855469050225203
2280,0.04851571155960532
2281,0.048603313891639965
2282,0.048764988464635506
2283,0.048834399846122145
2284,0.04876143505596231
2285,0.048584191875359006
2286,0.04844517559803463
2287,0.04840379463872391
2288,0.04834561250120406
2289,0.0481198173970071
2290,0.047663956153127685
2291,0.047071458521236065
2292,0.04655914669970429
2293,0.0463436086256388
2294,0.04649340015727721
2295,0.046794080044838204
2296,0.04696106957611601
2297,0.046857549037878754
2298,0.046649347872664615
2299,0.04667450662319139
2300,0.047057487345122495
2301,0.04751341125657149
2302,0.047655049279283435
2303,0.04725013287744617
2304,0.046560662390621066
2305,0.04607355290882298
2306,0.04611053109853702
2307,0.04656294603960964
2308,0.046998681849006574
2309,0.047135492763695
2310,0.047002955128411794
2311,0.04686066827771773
2312,0.04685481114663803
2313,0.0469099134385107
2314,0.046851253420296946
2315,0.04667594352415494
2316,0.04650302533384976
2317,0.04643241092841077
2318,0.046439913466923444
2319,0.0464860824579264
2320,0.046556526329548986
2321,0.04660720478468827
2322,0.04638731683811648
2323,0.045677286764826075
2324,0.04459237358544188
2325,0.04363168347824553
2326,0.04326113985052393
2327,0.04342937339839825
2328,0.04376563970070291
2329,0.043998228342406964
2330,0.04423346340644596
2331,0.044573888283206076
2332,0.04492021072502983
2333,0.04510861739264205
2334,0.045221698464427695
2335,0.04545809488702812
2336,0.04578973377926121
2337,0.04594508856863477
2338,0.04576225525469002
2339,0.04550700048060086
2340,0.04560570559671817
2341,0.04618446467087156
2342,0.04691784390564091
2343,0.04746849882998738
2344,0.047749669892702684
2345,0.047841671959710896
2346,0.047827672110082875
2347,0.04767312660988976
2348,0.04741296266537387
2349,0.047147542565448286
2350,0.04691353547174182
2351,0.046577028803235
2352,0.046006984078361346
2353,0.04531373057469967
2354,0.04478876317857794
2355,0.04473563353069343
2356,0.04520048214536132
2357,0.04580711604842136
2358,0.04610817758886465
2359,0.04594186322573823
2360,0.04556000774851543
2361,0.045433208443774076
2362,0.04573169436215163
2363,0.04622479745634389
2364,0.04651580475596484
2365,0.04639855355509581
2366,0.045996409615824296
2367,0.045665718414935164
2368,0.045727486278374196
2369,0.04619001875774342
2370,0.046746833337444116
2371,0.0470871996158293
2372,0.047077396897570956
2373,0.04680044471751399
2374,0.04631785632052621
2375,0.045768393458246015
2376,0.045377428577517254
2377,0.04543731323836864
2378,0.04579849764354871
2379,0.04587803461657103
2380,0.04521245369014426
2381,0.04404980261144742
2382,0.04311461836282671
2383,0.04278187246454901
2384,0.04271825417542552
2385,0.04242923894384876
2386,0.04196100927808233
2387,0.04175198685075443
2388,0.04206152469228153
2389,0.04261169813391619
2390,0.04307721566927558
2391,0.043449062268833494
2392,0.04388172934636714
2393,0.04431737189011831
2394,0.044492945368222014
2395,0.04426111066247007
2396,0.04377894439079322
2397,0.04339478767660665
2398,0.04319652796478579
2399,0.04303694443930284
2400,0.04277036228156139
2401,0.04254811483846599
2402,0.04266530419829562
2403,0.043142605584523985
2404,0.04366304990452341
2405,0.043847856978751154
2406,0.043592415305241716
2407,0.04319521307025109
2408,0.04291066871824567
2409,0.04281258494907425
2410,0.04278045112062201
2411,0.0427109041911794
2412,0.04251890832761118
2413,0.042213026223850036
2414,0.04188369639802636
2415,0.04160714611815086
2416,0.04140658534375519
2417,0.041295097529782554
2418,0.04128287063560543
2419,0.04146043523181431
2420,0.04179668982538476
2421,0.04221318964349996
2422,0.04258581375457815
2423,0.04283687196310959
2424,0.04292226501998064
2425,0.042824496496401854
2426,0.04267799385114446
2427,0.04265851916687924
2428,0.04268932922021618
2429,0.04253057188224307
2430,0.042057596747843595
2431,0.04147422107330223
2432,0.041086473091249354
2433,0.04104095621843162
2434,0.04114560013625512
2435,0.04125461668073138
2436,0.04139236549180669
2437,0.041647078384391634
2438,0.04199876797096336
2439,0.042309520132132405
2440,0.042503868636405207
2441,0.04257017031489885
2442,0.04243136101882794
2443,0.04195015067081609
2444,0.041221922288452006
2445,0.04061888449783857
2446,0.040469079818053366
2447,0.04073387727458899
2448,0.041039309989408634
2449,0.04120866759582675
2450,0.04129920361328265
2451,0.0413416814317944
2452,0.041322445293096144
2453,0.04126375809733818
2454,0.041319050182852646
2455,0.041520256666488176
2456,0.04168282871756601
2457,0.041695772420738075
2458,0.0416783559843632
2459,0.04169944607255083
2460,0.041654954516857856
2461,0.04145422544112298
2462,0.04112713935835355
2463,0.040786107574053654
2464,0.040472363243328924
2465,0.0401619104790254
2466,0.040011579160045496
2467,0.04003699014975903
2468,0.04016038190570037
2469,0.0403879941727624
2470,0.0408291573947146
2471,0.04137169776458849
2472,0.04154880900545155
2473,0.040971109190443
2474,0.03999852596892062
2475,0.03939972394347868
2476,0.03944115103352852
2477,0.03962572292477007
2478,0.03940275705848306
2479,0.03887814660881839
2480,0.038572290111743124
2481,0.03864730950913531
2482,0.038816124398685536
2483,0.03863605366766176
2484,0.03811766195706523
2485,0.03759883974285505
2486,0.03745736426862778
2487,0.03770556672477188
2488,0.03805774492739933
2489,0.038311627526737224
2490,0.03852547509415549
2491,0.03879367217371821
2492,0.038992642310843095
2493,0.03895605768197563
2494,0.03871287323045869
2495,0.03839790337757654
2496,0.038010058457363494
2497,0.037570100172705456
2498,0.037298449438124326
2499,0.03736497796076266
2500,0.037528337892822505
2501,0.03730137767955666
2502,0.03663208843850929
2503,0.03596614144415555
2504,0.03570838289518963
2505,0.03574178883409207
2506,0.03577092825636419
2507,0.03570324739464803
2508,0.03553936337474062
2509,0.03528222414665649
2510,0.034943030095649474
2511,0.034641925779994365
2512,0.03458622133484701
2513,0.03478973879477276
2514,0.03509960214906516
2515,0.03527659450595855
2516,0.03508956709856437
2517,0.0344990653359164
2518,0.03386632308399329
2519,0.03370843119286504
2520,0.03415028899906036
2521,0.03478165613723405
2522,0.03502568691591157
2523,0.034828730676117914
2524,0.03450742626537395
2525,0.03432569722467116
2526,0.0343265138389085
2527,0.034544789569413537
2528,0.03494391712423406
2529,0.03514223073494671
2530,0.03462116557825046
2531,0.03335697213082667
2532,0.032045217663922654
2533,0.031440825489070456
2534,0.03166083827206767
2535,0.03222706046993884
2536,0.032579287896255416
2537,0.03240593523892665
2538,0.03183996120116728
2539,0.031232187689419932
2540,0.03090410792633158
2541,0.030932260786301624
2542,0.031243815184714085
2543,0.0316548643200143
2544,0.03183818590812515
2545,0.031441976511958236
2546,0.030467833601175887
2547,0.029355807344315865
2548,0.028621873631197392
2549,0.02842075343614192
2550,0.028464526944646407
2551,0.028427516850137113
2552,0.02816671802052273
2553,0.027742322008860287
2554,0.027391053052555514
2555,0.027362716149799238
2556,0.02769935797693246
2557,0.02811873959515243
2558,0.028184787149061474
2559,0.02771800434737237
2560,0.026922527178790623
2561,0.02605491970114726
2562,0.02533984263021538
2563,0.024844240289359387
2564,0.024531758083861988
2565,0.024227215396933066
2566,0.023738861014845902
2567,0.02316880740633298
2568,0.022889942843121847
2569,0.023012561765373696
2570,0.023259831588886448
2571,0.023262111736342184
2572,0.02295180557110199
2573,0.022621831018993732
2574,0.022450014611659408
2575,0.022392022323280303
2576,0.022263444786041586
2577,0.02204278996098774
2578,0.022024658381646134
2579,0.022403545229785493
2580,0.022885727132129552
2581,0.022775628953713878
2582,0.02198309886515004
2583,0.0213577832131433
2584,0.021836542648617896
2585,0.02319516340795791
2586,0.024230859135313643
2587,0.024113619168194544
2588,0.023375667680368584
2589,0.02307655033667322
2590,0.02361489486247237
2591,0.02440714167979019
2592,0.024835874382979073
2593,0.025046832561749888
2594,0.025518447353675033
2595,0.0263500250929265
2596,0.027044793166131398
2597,0.027215866292263136
2598,0.026963514279331524
2599,0.026759227683516906
2600,0.026779599403860876
2601,0.026750513209541804
2602,0.026381932713208434
2603,0.025773997481715827
2604,0.02530625921865448
2605,0.025184961691740004
2606,0.025273472354709337
2607,0.025385942985789445
2608,0.02534019708345714
2609,0.025016143317061146
2610,0.024469024305123876
2611,0.023856136661926763
2612,0.023396549983586312
2613,0.023252642509293375
2614,0.02363968283319673
2615,0.02465859787447766
2616,0.02590348551352395
2617,0.026574074319136498
2618,0.026312692342941313
2619,0.02560635549503043
2620,0.02519514401681322
2621,0.02519358573926156
2622,0.025126767899333102
2623,0.024652906528670693
2624,0.024056378697920322
2625,0.023707786094893657
2626,0.02364103299673892
2627,0.023563290743490506
2628,0.023367018895618097
2629,0.023301064148138484
2630,0.02358351042725071
2631,0.024045476768417173
2632,0.02435485227160017
2633,0.024317986566665173
2634,0.024056399444554954
2635,0.023997818156189732
2636,0.024225141437563047
2637,0.024314595683668783
2638,0.023871038910712294
2639,0.023299452688752442
2640,0.023463519516274567
2641,0.024405191266594572
2642,0.025026334130268557
2643,0.02442675946208961
2644,0.023044541062020363
2645,0.022025357888485364
2646,0.021917945186505583
2647,0.02227776659698466
2648,0.02243895063514545
2649,0.022278637758429753
2650,0.022297127913088688
2651,0.02307761199497016
2652,0.024386807239039632
2653,0.02506100029131464
2654,0.024229535812335223
2655,0.022450847505652516
2656,0.021398570078710044
2657,0.021919841367884163
2658,0.023059947254097435
2659,0.02318830962264684
2660,0.02212236337161555
2661,0.02138560231220188
2662,0.022503998313478935
2663,0.025039645711902536
2664,0.02704820007571218
2665,0.027131551441585633
2666,0.02598089127382963
2667,0.025071758497255736
2668,0.024764070263324833
2669,0.024268927794423023
2670,0.02333900481959461
2671,0.022752327433726238
2672,0.02303930002005916
2673,0.023588342061846013
2674,0.023533992581673324
2675,0.02285277562122301
2676,0.02220021350889312
2677,0.02192540358687367
2678,0.02202372564521282
2679,0.02252419038295317
2680,0.023391223419418794
2681,0.02418493291227375
2682,0.02426293895316367
2683,0.02350731862986477
2684,0.022497138252177584
2685,0.021885733431728727
2686,0.021838364482333117
2687,0.022102514323329325
2688,0.022300309442056854
2689,0.02216836207645745
2690,0.021555319272403062
2691,0.020669908382788593
2692,0.02001422321607038
2693,0.019942364101660615
2694,0.02036871569444576
2695,0.02078541900506048
2696,0.02071145836652355
2697,0.019977140216149825
2698,0.018911017818232678
2699,0.018074670604392606
2700,0.017768598353565257
2701,0.017729432626980235
2702,0.017474535891240484
2703,0.017013705654230438
2704,0.01681382146362176
2705,0.017105934502125386
2706,0.017484631766507608
2707,0.017227492847676218
2708,0.016102358161228403
2709,0.014648123028219384
2710,0.013397152286841796
2711,0.012277238206053864
2712,0.010820667341870704
2713,0.009010454496509057
2714,0.007278601160252363
2715,0.005871360789725499
2716,0.004517144734083489
2717,0.0030121721910540966
2718,0.0016645201798224374
2719,0.0008137241510975946
2720,0.00027468556982401804
2721,-0.00040752252022357993
2722,-0.0014034097658415234
2723,-0.0025671930234950624
2724,-0.0037011457503007827
2725,-0.004744017946009538
2726,-0.00594598869102525
2727,-0.007772981284246749
2728,-0.010106012281167365
2729,-0.011943334913572912
2730,-0.012291526905981232
2731,-0.011681444854649836
2732,-0.011837400787045982
2733,-0.013367532172399166
2734,-0.014683494300639532
2735,-0.01407318610879682
2736,-0.011896837248817849
2737,-0.009409092124712859
2738,-0.006299986268173963
2739,-0.0012797873870107335
2740,0.004404661798368292
2741,0.006916336614372964
2742,0.0044693737901189134
2743,-3.245791870898351e-05
2744,-0.0023277848877426566
2745,-0.0015385144987186683
2746,6.649107877376714e-05
2747,0.0008401578524257491
2748,0.001331247176601602
2749,0.002524651414624879
2750,0.004268624103457741
2751,0.005645498437216068
2752,0.005960003011636683
2753,0.005338634489670757
2754,0.004697201381726246
2755,0.0049712953700928875
2756,0.00610729980798963
2757,0.00725042088040162
2758,0.007871359068943873
2759,0.008146426583726885
2760,0.008522480042065461
2761,0.009143256733522565
2762,0.009956910195944912
2763,0.010916625928816592
2764,0.011620342430727515
2765,0.011409496466759816
2766,0.010028646257656537
2767,0.008496524637565117
2768,0.008263980223510936
2769,0.009589752743078495
2770,0.01130202317162432
2771,0.012468135790573931
2772,0.013398943833804466
2773,0.014337397856719725
2774,0.014747178338217704
2775,0.014604717716826143
2776,0.015077793770482462
2777,0.016455270058914007
2778,0.017171492981556513
2779,0.015991993273632987
2780,0.01409775396683588
2781,0.01328088288479412
2782,0.013513577740094207
2783,0.013735777615928035
2784,0.013858231637682072
2785,0.014631187374028243
2786,0.016092584483461403
2787,0.017419357458986928
2788,0.01830669982661426
2789,0.019310049401015994
2790,0.020710315836041215
2791,0.021779641277690498
2792,0.02140855552280041
2793,0.019201453226768916
2794,0.01582766802340818
2795,0.012681814711930306
2796,0.011293225083099934
2797,0.012290088263335441
2798,0.014543175266134467
2799,0.01601844799872909
2800,0.015599638050255993
2801,0.014106475817786901
2802,0.013208965880136647
2803,0.013637840362972553
2804,0.014659492353364834
2805,0.01544687421494495
2806,0.01581951910915469
2807,0.01551065327674872
2808,0.013600246094107371
2809,0.010009631507952976
2810,0.0067969826476094175
2811,0.006473510618445921
2812,0.00904205400039293
2813,0.012013601908285931
2814,0.0131365400318183
2815,0.012035222586826988
2816,0.009314823709607345
2817,0.00542000400652487
2818,0.0009237199919063244
2819,-0.0027687999294842003
2820,-0.004440481953097097
2821,-0.004735232864466865
2822,-0.0056262091730380215
2823,-0.007662950575940908
2824,-0.008997210046830406
2825,-0.008202580202402943
2826,-0.006943281746086383
2827,-0.008148936658859629
2828,-0.011966754029761772
2829,-0.015520703904734146
2830,-0.017209196230709378
2831,-0.01894056644555886
2832,-0.02304895810243779
2833,-0.02867494601425702
2834,-0.0331676708006613
2835,-0.035775480830816275
2836,-0.037690396525056014
2837,-0.039990190973343664
2838,-0.04404698074880198
2839,-0.05182346364236301
2840,-0.063190485513957
2841,-0.07457745054812437
2842,-0.08333207283363919
2843,-0.09136247535085584
2844,-0.1017542754632732
2845,-0.11372529021560873
2846,-0.12466348143805694
2847,-0.13492979952574258
2848,-0.1469597268095011
2849,-0.1603873790838254
2850,-0.17090474199276107
2851,-0.17504642078131527
2852,-0.17449330499936855
2853,-0.17465063391182034
2854,-0.17895503129068402
2855,-0.1852027758265984
2856,-0.18838236715268453
2857,-0.1870462653093079
2858,-0.1851971404175714
2859,-0.18707302444190532
2860,-0.19199257531228742
2861,-0.1963467837090146
2862,-0.19901789033078887
2863,-0.20239203436235154
2864,-0.2081095200748002
2865,-0.21523782190150254
2866,-0.22297212179216586
2867,-0.2315625198522926
2868,-0.24006641766744619
2869,-0.2461993704338573
2870,-0.2495655910088207
2871,-0.252095908884988
2872,-0.25464229167969243
2873,-0.25625192136562136
2874,-0.25694893699024335
2875,-0.2579153139234609
2876,-0.25887230086628854
2877,-0.2578767977633416
2878,-0.25403968906577246
2879,-0.24846711119879872
2880,-0.24291990588267487
2881,-0.2388146146530672
2882,-0.2362354814010479
2883,-0.23349409708421098
2884,-0.229516862880361
2885,-0.22645064666583314
2886,-0.22690680614397563
2887,-0.22909136991743184
2888,-0.22857685767783742
2889,-0.22480925726307854
2890,-0.22163813923369513
2891,-0.22145107983627743
2892,-0.2227264356905354
2893,-0.2234566773818185
2894,-0.22342185433351336
2895,-0.22311392708395994
2896,-0.22367705743741817
2897,-0.22685397843696775
2898,-0.23229726348076707
2899,-0.23645608013443187
2900,-0.2361554349133741
2901,-0.23203825440545645
2902,-0.2274937238418986
2903,-0.22601959747050282
2904,-0.2289115358905991
2905,-0.23351592980742786
2906,-0.23490046868252523
2907,-0.23194115490903278
2908,-0.22947354430122024
2909,-0.23185251662062312
2910,-0.23697885761933524
2911,-0.23952426531446935
2912,-0.237953348359059
2913,-0.2359460322940008
2914,-0.2376321581734009
2915,-0.24265094268280307
2916,-0.24636725633131296
2917,-0.2455776384264684
2918,-0.24289749091696555
2919,-0.24317018871704832
2920,-0.2471609496733731
2921,-0.2512069423368022
2922,-0.25219494622376226
2923,-0.2501983370563192
2924,-0.24697817352809426
2925,-0.24397824926005007
2926,-0.24169024765947744
2927,-0.23998400771450157
2928,-0.23874102742464132
2929,-0.23756805360020872
2930,-0.23500862084332486
2931,-0.22890721906577838
2932,-0.2182945536784786
2933,-0.20504708469438837
2934,-0.19252635898827297
2935,-0.18145128226629914
2936,-0.16854816752225166
2937,-0.15084359412977932
2938,-0.12900470185718027
2939,-0.10458003624979839
2940,-0.07729832927535418
2941,-0.04770308253800459
2942,-0.018958910553455666
2943,0.006374657865790612
2944,0.028298607377862273
2945,0.046673812406481496
2946,0.05987809305665581
2947,0.06732279466367441
2948,0.07044649443341588
2949,0.07006844877348384
2950,0.06464894638305363
2951,0.05238830826942409
2952,0.033724711677373787
2953,0.011088093202711757
2954,-0.012977846942510363
2955,-0.03704638987695441
2956,-0.06076562511928618
2957,-0.0838090292621535
2958,-0.10504282910436369
2959,-0.12305477445294688
2960,-0.13758215916727323
2961,-0.15008136529551308
2962,-0.16242804654366438
2963,-0.17428265082508354
2964,-0.18290832280215386
2965,-0.1876992408936925
2966,-0.1921746018041568
2967,-0.19687994225178307
2968,-0.19560563698219102
2969,-0.18662527103841975
2970,-0.18038849087720688
2971,-0.1850461864994808
2972,-0.19234399671720948
2973,-0.19011114197156787
2974,-0.17993406194567563
2975,-0.17097575010056265
2976,-0.16530546132774337
2977,-0.15988684890244653
2978,-0.15507420622712842
2979,-0.15242170218153372
2980,-0.14964013621483163
2981,-0.14320906027601776
2982,-0.13241582231270443
2983,-0.11914360612095842
2984,-0.10599120528086858
2985,-0.09375936261762696
2986,-0.07960126227229525
2987,-0.059984652262263904
2988,-0.0355187200433974
2989,-0.010654362944844342
2990,0.01065322751462272
2991,0.027439651824986533
2992,0.041667977658850885
2993,0.05583581946531646
2994,0.06952254261166624
2995,0.0800563155595202
2996,0.08722354599515247
2997,0.09333304492981842
2998,0.0990478449245138
2999,0.10394936194661053
3000,0.10943775708079206
